PSTAR: Stopping Powers and Range Tables for Protons

URANIUM                                                                 

Kinetic   Total     Projected 
Energy    Stp. Pow. Range     
MeV       MeV cm2/g g/cm2     

1.000E-03 1.905E+01 1.052E-05 
1.500E-03 2.320E+01 1.476E-05 
2.000E-03 2.669E+01 1.890E-05 
2.500E-03 2.976E+01 2.294E-05 
3.000E-03 3.253E+01 2.691E-05 
4.000E-03 3.745E+01 3.470E-05 
5.000E-03 4.177E+01 4.234E-05 
6.000E-03 4.568E+01 4.985E-05 
7.000E-03 4.928E+01 5.726E-05 
8.000E-03 5.262E+01 6.458E-05 
9.000E-03 5.576E+01 7.182E-05 
1.000E-02 5.873E+01 7.899E-05 
1.250E-02 6.479E+01 9.672E-05 
1.500E-02 7.014E+01 1.142E-04 
1.750E-02 7.499E+01 1.316E-04 
2.000E-02 7.942E+01 1.487E-04 
2.250E-02 8.352E+01 1.656E-04 
2.500E-02 8.733E+01 1.823E-04 
2.750E-02 9.089E+01 1.988E-04 
3.000E-02 9.423E+01 2.152E-04 
3.500E-02 1.003E+02 2.475E-04 
4.000E-02 1.058E+02 2.792E-04 
4.500E-02 1.107E+02 3.104E-04 
5.000E-02 1.151E+02 3.411E-04 
5.500E-02 1.191E+02 3.715E-04 
6.000E-02 1.227E+02 4.016E-04 
6.500E-02 1.260E+02 4.313E-04 
7.000E-02 1.289E+02 4.608E-04 
7.500E-02 1.315E+02 4.901E-04 
8.000E-02 1.338E+02 5.192E-04 
8.500E-02 1.359E+02 5.481E-04 
9.000E-02 1.377E+02 5.770E-04 
9.500E-02 1.393E+02 6.057E-04 
1.000E-01 1.406E+02 6.345E-04 
1.250E-01 1.446E+02 7.780E-04 
1.500E-01 1.450E+02 9.233E-04 
1.750E-01 1.429E+02 1.072E-03 
2.000E-01 1.393E+02 1.227E-03 
2.250E-01 1.347E+02 1.388E-03 
2.500E-01 1.297E+02 1.556E-03 
2.750E-01 1.243E+02 1.732E-03 
3.000E-01 1.189E+02 1.917E-03 
3.500E-01 1.088E+02 2.316E-03 
4.000E-01 1.001E+02 2.753E-03 
4.500E-01 9.288E+01 3.228E-03 
5.000E-01 8.681E+01 3.740E-03 
5.500E-01 8.172E+01 4.287E-03 
6.000E-01 7.743E+01 4.868E-03 
6.500E-01 7.379E+01 5.481E-03 
7.000E-01 7.067E+01 6.122E-03 
7.500E-01 6.799E+01 6.792E-03 
8.000E-01 6.565E+01 7.488E-03 
8.500E-01 6.362E+01 8.208E-03 
9.000E-01 6.183E+01 8.950E-03 
9.500E-01 6.024E+01 9.714E-03 
1.000E+00 5.884E+01 1.050E-02 
1.250E+00 5.338E+01 1.468E-02 
1.500E+00 4.912E+01 1.927E-02 
1.750E+00 4.566E+01 2.425E-02 
2.000E+00 4.276E+01 2.960E-02 
2.250E+00 4.031E+01 3.531E-02 
2.500E+00 3.818E+01 4.135E-02 
2.750E+00 3.631E+01 4.774E-02 
3.000E+00 3.465E+01 5.445E-02 
3.500E+00 3.184E+01 6.881E-02 
4.000E+00 2.954E+01 8.440E-02 
4.500E+00 2.760E+01 1.012E-01 
5.000E+00 2.595E+01 1.191E-01 
5.500E+00 2.452E+01 1.381E-01 
6.000E+00 2.327E+01 1.582E-01 
6.500E+00 2.216E+01 1.794E-01 
7.000E+00 2.117E+01 2.016E-01 
7.500E+00 2.028E+01 2.249E-01 
8.000E+00 1.948E+01 2.491E-01 
8.500E+00 1.875E+01 2.743E-01 
9.000E+00 1.808E+01 3.005E-01 
9.500E+00 1.747E+01 3.277E-01 
1.000E+01 1.690E+01 3.558E-01 
1.250E+01 1.461E+01 5.102E-01 
1.500E+01 1.294E+01 6.866E-01 
1.750E+01 1.166E+01 8.843E-01 
2.000E+01 1.065E+01 1.102E+00 
2.500E+01 9.124E+00 1.597E+00 
2.750E+01 8.535E+00 1.873E+00 
3.000E+01 8.026E+00 2.167E+00 
3.500E+01 7.191E+00 2.809E+00 
4.000E+01 6.534E+00 3.521E+00 
4.500E+01 6.003E+00 4.300E+00 
5.000E+01 5.564E+00 5.145E+00 
5.500E+01 5.195E+00 6.053E+00 
6.000E+01 4.881E+00 7.023E+00 
6.500E+01 4.610E+00 8.053E+00 
7.000E+01 4.373E+00 9.142E+00 
7.500E+01 4.165E+00 1.029E+01 
8.000E+01 3.980E+00 1.149E+01 
8.500E+01 3.815E+00 1.274E+01 
9.000E+01 3.667E+00 1.405E+01 
9.500E+01 3.533E+00 1.541E+01 
1.000E+02 3.411E+00 1.682E+01 
1.250E+02 2.937E+00 2.459E+01 
1.500E+02 2.608E+00 3.346E+01 
1.750E+02 2.367E+00 4.335E+01 
2.000E+02 2.183E+00 5.416E+01 
2.250E+02 2.037E+00 6.582E+01 
2.500E+02 1.919E+00 7.825E+01 
2.750E+02 1.822E+00 9.140E+01 
3.000E+02 1.740E+00 1.052E+02 
3.500E+02 1.612E+00 1.346E+02 
4.000E+02 1.516E+00 1.662E+02 
4.500E+02 1.441E+00 1.996E+02 
5.000E+02 1.382E+00 2.345E+02 
5.500E+02 1.334E+00 2.709E+02 
6.000E+02 1.295E+00 3.084E+02 
6.500E+02 1.263E+00 3.470E+02 
7.000E+02 1.236E+00 3.866E+02 
7.500E+02 1.213E+00 4.269E+02 
8.000E+02 1.194E+00 4.680E+02 
8.500E+02 1.177E+00 5.098E+02 
9.000E+02 1.163E+00 5.521E+02 
9.500E+02 1.150E+00 5.949E+02 
1.000E+03 1.140E+00 6.381E+02 
1.500E+03 1.087E+00 1.086E+03 
2.000E+03 1.077E+00 1.546E+03 
2.500E+03 1.082E+00 2.007E+03 
3.000E+03 1.092E+00 2.465E+03 
4.000E+03 1.117E+00 3.366E+03 
5.000E+03 1.143E+00 4.248E+03 
6.000E+03 1.167E+00 5.111E+03 
7.000E+03 1.189E+00 5.958E+03 
8.000E+03 1.208E+00 6.791E+03 
9.000E+03 1.226E+00 7.611E+03 
1.000E+04 1.242E+00 8.420E+03 